Time (s),Amplitude
0.0,-23814144
6.250406927534345e-05,-20221952
0.0001250081385506869,-13105152
0.00018751220782603034,-4311040
0.0002500162771013738,4685824
0.00031252034637671724,13115392
0.0003750244156520607,20080640
0.00043752848492740413,23842816
0.0005000325542027476,24147968
0.000562536623478091,20697088
0.0006250406927534345,14227456
0.000687544762028778,5822464
0.0007500488313041214,-3381248
0.0008125529005794648,-11978752
0.0008750569698548083,-19228672
0.0009375610391301518,-23541760
0.0010000651084054952,-23760896
0.0010625691776808385,-20084736
0.001125073246956182,-13309952
0.0011875773162315255,-4710400
0.001250081385506869,4261888
0.0013125854547822123,12664832
0.001375089524057556,19677184
0.0014375935933328993,23502848
0.0015000976626082427,23552000
0.0015626017318835861,19986432
0.0016251058011589295,13563904
0.0016876098704342731,5410816
0.0017501139397096165,-3520512
0.00181261800898496,-11808768
0.0018751220782603035,-18341888
0.001937626147535647,-22366208
0.0020001302168109903,-23236608
0.0020626342860863337,-19879936
0.002125138355361677,-13320192
0.0021876424246370205,-4739072
0.002250146493912364,4354048
0.0023126505631877077,12931072
0.002375154632463051,19568640
0.0024376587017383945,23230464
0.002500162771013738,23828480
0.0025626668402890813,20453376
0.0026251709095644247,13731840
0.002687674978839768,5427200
0.002750179048115112,-3958784
0.0028126831173904553,-12646400
0.0028751871866657987,-18952192
0.002937691255941142,-22462464
0.0030001953252164855,-22751232
0.003062699394491829,-19167232
0.0031252034637671722,-12605440
0.0031877075330425156,-4239360
0.003250211602317859,4560896
0.003312715671593203,12849152
0.0033752197408685462,19322880
0.0034377238101438896,22837248
0.003500227879419233,23244800
0.0035627319486945764,19939328
0.00362523601796992,13295616
0.003687740087245263,4753408
0.003750244156520607,-4108288
0.0038127482257959504,-12392448
0.003875252295071294,-18855936
0.003937756364346637,-22865920
0.004000260433621981,-23386112
0.0040627645028973244,-19482624
0.004125268572172667,-12918784
0.004187772641448011,-4374528
0.004250276710723354,4689920
0.004312780779998698,13092864
0.004375284849274041,19855360
0.004437788918549385,23339008
0.004500292987824728,23494656
0.004562797057100072,20013056
0.004625301126375415,13893632
0.004687805195650758,5607424
0.004750309264926102,-3500032
0.004812813334201445,-12130304
0.004875317403476789,-18962432
0.004937821472752132,-22882304
0.005000325542027476,-23126016
0.00506282961130282,-19316736
0.0051253336805781625,-12675072
0.005187837749853506,-4128768
0.005250341819128849,4837376
0.005312845888404193,13246464
0.005375349957679536,19857408
0.00543785402695488,23590912
0.005500358096230224,23853056
0.005562862165505567,20144128
0.0056253662347809106,13903872
0.0056878703040562535,5478400
0.005750374373331597,-3549184
0.00581287844260694,-11921408
0.005875382511882284,-18724864
0.005937886581157627,-22925312
0.006000390650432971,-23240704
0.006062894719708315,-19847168
0.006125398788983658,-13158400
0.0061879028582590015,-4483072
0.0062504069275343445,4511744
0.006312910996809688,12668928
0.006375415066085031,19224576
0.006437919135360375,22872064
0.006500423204635718,23279616
0.006562927273911062,19879936
0.006625431343186406,13631488
0.006687935412461749,5351424
0.0067504394817370925,-3383296
0.0068129435510124355,-11489280
0.006875447620287779,-18640896
0.006937951689563122,-22528000
0.007000455758838466,-22691840
0.00706295982811381,-19126272
0.007125463897389153,-12849152
0.007187967966664497,-4646912
0.00725047203593984,3815424
0.0073129761052151835,11892736
0.007375480174490526,18262016
0.00743798424376587,21753856
0.007500488313041214,22253568
0.007562992382316557,19001344
0.007625496451591901,12828672
0.007688000520867244,4919296
0.007750504590142588,-3616768
0.007813008659417931,-11776000
0.007875512728693274,-18434048
0.007938016797968617,-22181888
0.008000520867243961,-22581248
0.008063024936519305,-19345408
0.008125529005794649,-12881920
0.008188033075069991,-4651008
0.008250537144345335,3778560
0.008313041213620679,11896832
0.008375545282896022,18384896
0.008438049352171365,21764096
0.008500553421446708,21725184
0.008563057490722052,18497536
0.008625561559997396,12441600
0.00868806562927274,4481024
0.008750569698548082,-4370432
0.008813073767823426,-12363776
0.00887557783709877,-18919424
0.008938081906374113,-22609920
0.009000585975649456,-22708224
0.0090630900449248,-19064832
0.009125594114200143,-12466176
0.009188098183475487,-4388864
0.00925060225275083,4157440
0.009313106322026173,12097536
0.009375610391301517,18413568
0.00943811446057686,22089728
0.009500618529852204,22259712
0.009563122599127548,18554880
0.00962562666840289,12101632
0.009688130737678234,4419584
0.009750634806953578,-4190208
0.009813138876228922,-12455936
0.009875642945504264,-18802688
0.009938147014779608,-22532096
0.010000651084054952,-23162880
0.010063155153330295,-19539968
0.01012565922260564,-12883968
0.010188163291880981,-4569088
0.010250667361156325,4055040
0.010313171430431669,12218368
0.010375675499707013,18794496
0.010438179568982355,22407168
0.010500683638257699,22468608
0.010563187707533042,18855936
0.010625691776808386,12697600
0.01068819584608373,4706304
0.010750699915359072,-3854336
0.010813203984634416,-11403264
0.01087570805390976,-17715200
0.010938212123185104,-21686272
0.011000716192460448,-21987328
0.01106322026173579,-18657280
0.011125724331011133,-12460032
0.011188228400286477,-4331520
0.011250732469561821,4167680
0.011313236538837163,12267520
0.011375740608112507,18599936
0.01143824467738785,22300672
0.011500748746663195,22958080
0.011563252815938539,19769344
0.01162575688521388,13504512
0.011688260954489224,5298176
0.011750765023764568,-3520512
0.011813269093039912,-11722752
0.011875773162315254,-18792448
0.011938277231590598,-22896640
0.012000781300865942,-23349248
0.012063285370141286,-19802112
0.01212578943941663,-13207552
0.012188293508691972,-4937728
0.012250797577967315,3686400
0.01231330164724266,11606016
0.012375805716518003,17909760
0.012438309785793345,21667840
0.012500813855068689,22050816
0.012563317924344033,18913280
0.012625821993619377,12771328
0.01268832606289472,4757504
0.012750830132170063,-3977216
0.012813334201445406,-12204032
0.01287583827072075,-18636800
0.012938342339996094,-22138880
0.013000846409271436,-22464512
0.01306335047854678,-19075072
0.013125854547822124,-12490752
0.013188358617097468,-4614144
0.013250862686372811,3710976
0.013313366755648154,11737088
0.013375870824923497,18219008
0.013438374894198841,21702656
0.013500878963474185,22118400
0.013563383032749529,18968576
0.013625887102024871,12533760
0.013688391171300215,4546560
0.013750895240575559,-4370432
0.013813399309850902,-12328960
0.013875903379126244,-18733056
0.013938407448401588,-22697984
0.014000911517676932,-22814720
0.014063415586952276,-19369984
0.01412591965622762,-13078528
0.014188423725502962,-4716544
0.014250927794778306,4075520
0.01431343186405365,11988992
0.014375935933328993,18501632
0.014438440002604335,21968896
0.01450094407187968,21915648
0.014563448141155023,18739200
0.014625952210430367,12615680
0.01468845627970571,4954112
0.014750960348981053,-3569664
0.014813464418256397,-11964416
0.01487596848753174,-18292736
0.014938472556807084,-22177792
0.015000976626082428,-22536192
0.01506348069535777,-18987008
0.015125984764633114,-12883968
0.015188488833908458,-4624384
0.015250992903183802,4210688
0.015313496972459144,12169216
0.015376001041734488,18599936
0.015438505111009831,21807104
0.015501009180285175,22061056
0.015563513249560519,19044352
0.015626017318835863,12937216
0.015688521388111207,4788224
0.015751025457386547,-3835904
0.01581352952666189,-12216320
0.015876033595937235,-18210816
0.01593853766521258,-21895168
0.016001041734487922,-22196224
0.016063545803763266,-18413568
0.01612604987303861,-12378112
0.016188553942313954,-4534272
0.016251058011589298,4040704
0.016313562080864638,12046336
0.016376066150139982,18325504
0.016438570219415326,21929984
0.01650107428869067,22478848
0.016563578357966013,19374080
0.016626082427241357,13033472
0.0166885864965167,5242880
0.016751090565792045,-3594240
0.01681359463506739,-12066816
0.01687609870434273,-18569216
0.016938602773618073,-22605824
0.017001106842893417,-22652928
0.01706361091216876,-19118080
0.017126114981444104,-12922880
0.017188619050719448,-4448256
0.017251123119994792,4044800
0.017313627189270136,11751424
0.01737613125854548,18186240
0.01743863532782082,21852160
0.017501139397096164,21895168
0.017563643466371508,18579456
0.01762614753564685,12271616
0.017688651604922195,4448256
0.01775115567419754,-3758080
0.017813659743472883,-11913216
0.017876163812748227,-18063360
0.01793866788202357,-21940224
0.01800117195129891,-22351872
0.018063676020574255,-18669568
0.0181261800898496,-12527616
0.018188684159124942,-4497408
0.018251188228400286,4069376
0.01831369229767563,11898880
0.018376196366950974,18497536
0.018438700436226318,22245376
0.01850120450550166,22478848
0.018563708574777005,19257344
0.018626212644052346,13129728
0.01868871671332769,5277696
0.018751220782603033,-3670016
0.018813724851878377,-12115968
0.01887622892115372,-18558976
0.018938732990429065,-22235136
0.01900123705970441,-22360064
0.019063741128979753,-18774016
0.019126245198255096,-12267520
0.019188749267530437,-4259840
0.01925125333680578,4112384
0.019313757406081124,12085248
0.019376261475356468,18356224
0.019438765544631812,22110208
0.019501269613907156,22687744
0.0195637736831825,19355648
0.019626277752457844,12969984
0.019688781821733187,4954112
0.019751285891008528,-3923968
0.01981378996028387,-11655168
0.019876294029559215,-17885184
0.01993879809883456,-21696512
0.020001302168109903,-21739520
0.020063806237385247,-18141184
0.02012631030666059,-11966464
0.020188814375935935,-3913728
0.02025131844521128,4694016
0.02031382251448662,12576768
0.020376326583761963,18587648
0.020438830653037306,22222848
0.02050133472231265,22992896
0.020563838791587994,19423232
0.020626342860863338,13387776
0.02068884693013868,5410816
0.020751350999414025,-3194880
0.02081385506868937,-10891264
0.02087635913796471,-17451008
0.020938863207240054,-21544960
0.021001367276515397,-21977088
0.02106387134579074,-18272256
0.021126375415066085,-11921408
0.02118887948434143,-3938304
0.021251383553616773,4321280
0.021313887622892116,12052480
0.02137639169216746,18483200
0.0214388957614428,22454272
0.021501399830718144,22556672
0.02156390389999349,19175424
0.021626407969268832,13305856
0.021688912038544176,5365760
0.02175141610781952,-3121152
0.021813920177094864,-11202560
0.021876424246370207,-17428480
0.02193892831564555,-21448704
0.022001432384920895,-21997568
0.022063936454196235,-18341888
0.02212644052347158,-12687360
0.022188944592746923,-4544512
0.022251448662022267,4225024
0.02231395273129761,12406784
0.022376456800572955,18679808
0.0224389608698483,21979136
0.022501464939123642,22265856
0.022563969008398986,18849792
0.022626473077674326,12607488
0.02268897714694967,4835328
0.022751481216225014,-3461120
0.022813985285500358,-11581440
0.0228764893547757,-17995776
0.022938993424051046,-21686272
0.02300149749332639,-21803008
0.023064001562601733,-18257920
0.023126505631877077,-12636160
0.023189009701152417,-4708352
0.02325151377042776,4005888
0.023314017839703105,11966464
0.02337652190897845,18364416
0.023439025978253793,21968896
0.023501530047529137,22302720
0.02356403411680448,19079168
0.023626538186079824,12853248
0.023689042255355168,4913152
0.02375154632463051,-3461120
0.023814050393905852,-11319296
0.023876554463181196,-18204672
0.02393905853245654,-21966848
0.024001562601731884,-21770240
0.024064066671007227,-18497536
0.02412657074028257,-12173312
0.024189074809557915,-4036608
0.02425157887883326,4374528
0.0243140829481086,11911168
0.024376587017383943,18409472
0.024439091086659287,22185984
0.02450159515593463,22245376
0.024564099225209975,19185664
0.02462660329448532,13068288
0.024689107363760662,5390336
0.024751611433036006,-2869248
0.02481411550231135,-10907648
0.02487661957158669,-17500160
0.024939123640862034,-21278720
0.025001627710137378,-21424128
0.025064131779412722,-18151424
0.025126635848688066,-11659264
0.02518913991796341,-3612672
0.025251643987238753,4739072
0.025314148056514097,12732416
0.02537665212578944,18837504
0.02543915619506478,22671360
0.025501660264340125,22669312
0.02556416433361547,19181568
0.025626668402890813,13551616
0.025689172472166157,5447680
0.0257516765414415,-3395584
0.025814180610716844,-11601920
0.025876684679992188,-18249728
0.025939188749267532,-22167552
0.026001692818542872,-22327296
0.026064196887818216,-18845696
0.02612670095709356,-12505088
0.026189205026368904,-4483072
0.026251709095644248,3928064
0.02631421316491959,12109824
0.026376717234194935,18913280
0.02643922130347028,22536192
0.026501725372745623,22761472
0.026564229442020967,19662848
0.026626733511296307,13465600
0.02668923758057165,5574656
0.026751741649846995,-2873344
0.02681424571912234,-11241472
0.026876749788397682,-18075648
0.026939253857673026,-21987328
0.02700175792694837,-22274048
0.027064261996223714,-18622464
0.027126766065499058,-12371968
0.027189270134774398,-4327424
0.027251774204049742,4026368
0.027314278273325086,11800576
0.02737678234260043,17747968
0.027439286411875773,21282816
0.027501790481151117,21891072
0.02756429455042646,18802688
0.027626798619701805,12595200
0.02768930268897715,4685824
0.02775180675825249,-3428352
0.027814310827527833,-11599872
0.027876814896803177,-18262016
0.02793931896607852,-21858304
0.028001823035353864,-22245376
0.028064327104629208,-19263488
0.028126831173904552,-13096960
0.028189335243179896,-4802560
0.02825183931245524,3651584
0.02831434338173058,11702272
0.028376847451005924,18434048
0.028439351520281268,22110208
0.02850185558955661,22355968
0.028564359658831955,18651136
0.0286268637281073,12476416
0.028689367797382643,4870144
0.028751871866657987,-3768320
0.02881437593593333,-11755520
0.02887688000520867,-18190336
0.028939384074484015,-22167552
0.02900188814375936,-22493184
0.029064392213034702,-18894848
0.029126896282310046,-12668928
0.02918940035158539,-4745216
0.029251904420860734,3899392
0.029314408490136078,11964416
0.02937691255941142,18315264
0.029439416628686762,22183936
0.029501920697962106,22708224
0.02956442476723745,19759104
0.029626928836512793,13975552
0.029689432905788137,6002688
0.02975193697506348,-2351104
0.029814441044338825,-10844160
0.02987694511361417,-17438720
0.029939449182889512,-21139456
0.030001953252164856,-21598208
0.030064457321440197,-18282496
0.03012696139071554,-12216320
0.030189465459990884,-3907584
0.030251969529266228,4665344
0.030314473598541572,12345344
0.030376977667816916,18739200
0.03043948173709226,22052864
0.030501985806367603,22065152
0.030564489875642947,18685952
0.030626993944918288,12611584
0.03068949801419363,4415488
0.030752002083468975,-4102144
0.03081450615274432,-11984896
0.030877010222019663,-18186240
0.030939514291295007,-22124544
0.03100201836057035,-22251520
0.031064522429845694,-18624512
0.031127026499121038,-12339200
0.03118953056839638,-3835904
0.031252034637671726,4950016
0.031314538706947066,12742656
0.031377042776222414,18675712
0.031439546845497754,22231040
0.031502050914773094,22657024
0.03156455498404844,19443712
0.03162705905332378,13352960
0.03168956312259913,5443584
0.03175206719187447,-3250176
0.03181457126114982,-11177984
0.03187707533042516,-17807360
0.031939579399700505,-22190080
0.032002083468975845,-22953984
0.032064587538251185,-19482624
0.03212709160752653,-13344768
0.03218959567680187,-5109760
0.03225209974607722,3432448
0.03231460381535256,11026432
0.03237710788462791,17205248
0.03243961195390325,20822016
0.032502116023178595,21196800
0.032564620092453936,18132992
0.032627124161729276,11925504
0.032689628231004624,4306944
0.032752132300279964,-4069376
0.03281463636955531,-12208128
0.03287714043883065,-18675712
0.032939644508106,-22564864
0.03300214857738134,-22779904
0.033064652646656686,-19263488
0.03312715671593203,-12455936
0.03318966078520737,-4233216
0.033252164854482714,4012032
0.033314668923758055,11978752
0.0333771729930334,17952768
0.03343967706230874,21714944
0.03350218113158409,22429696
0.03356468520085943,19167232
0.03362718927013478,13033472
0.03368969333941012,4939776
0.03375219740868546,-3909632
0.033814701477960805,-12013568
0.033877205547236146,-18585600
0.03393970961651149,-22128640
0.03400221368578683,-22319104
0.03406471775506218,-18675712
0.03412722182433752,-12601344
0.03418972589361287,-4409344
0.03425222996288821,3885056
0.03431473403216355,11552768
0.034377238101438896,18194432
0.03443974217071424,21743616
0.034502246239989584,21929984
0.034564750309264924,18583552
0.03462725437854027,12353536
0.03468975844781561,4612096
0.03475226251709096,-3801088
0.0348147665863663,-11814912
0.03487727065564164,-18272256
0.03493977472491699,-21958656
0.03500227879419233,-22450176
0.035064782863467675,-18948096
0.035127286932743015,-12566528
0.03518979100201836,-4675584
0.0352522950712937,3573760
0.03531479914056905,11599872
0.03537730320984439,18171904
0.03543980727911973,21628928
0.03550231134839508,21688320
0.03556481541767042,18468864
0.035627319486945766,12568576
0.035689823556221106,5036032
0.035752327625496454,-3371008
0.035814831694771794,-11290624
0.03587733576404714,-17891328
0.03593983983332248,-21891072
0.03600234390259782,-22210560
0.03606484797187317,-18966528
0.03612735204114851,-12711936
0.03618985611042386,-4745216
0.0362523601796992,3612672
0.036314864248974545,11446272
0.036377368318249885,17729536
0.03643987238752523,21311488
0.03650237645680057,21831680
0.03656488052607592,18710528
0.03662738459535126,12609536
0.0366898886646266,4802560
0.03675239273390195,-3371008
0.03681489680317729,-11606016
0.036877400872452636,-18296832
0.036939904941727976,-22280192
0.03700240901100332,-22716416
0.037064913080278664,-19294208
0.03712741714955401,-13416448
0.03718992121882935,-5240832
0.03725242528810469,2975744
0.03731492935738004,11128832
0.03737743342665538,17776640
0.03743993749593073,21356544
0.03750244156520607,21749760
0.037564945634481414,18391040
0.037627449703756755,12120064
0.0376899537730321,4331520
0.03775245784230744,-3930112
0.03781496191158278,-11945984
0.03787746598085813,-18190336
0.03793997005013347,-21792768
0.03800247411940882,-21962752
0.03806497818868416,-18735104
0.038127482257959505,-12679168
0.038189986327234846,-4714496
0.03825249039651019,3934208
0.03831499446578553,11528192
0.038377498535060874,17582080
0.03844000260433622,21356544
0.03850250667361156,21221376
0.03856501074288691,18204672
0.03862751481216225,12431360
0.038690018881437596,4325376
0.038752522950712937,-3973120
0.038815027019988284,-11673600
0.038877531089263624,-17977344
0.038940035158538965,-21983232
0.03900253922781431,-22210560
0.03906504329708965,-18796544
0.039127547366365,-12480512
0.03919005143564034,-4579328
0.03925255550491569,3807232
0.03931505957419103,11941888
0.039377563643466375,18321408
0.039440067712741715,21817344
0.039502571782017055,22011904
0.0395650758512924,18554880
0.03962757992056774,12251136
0.03969008398984309,4317184
0.03975258805911843,-4282368
0.03981509212839378,-12144640
0.03987759619766912,-18728960
0.039940100266944466,-22284288
0.040002604336219806,-22560768
0.040065108405495146,-19255296
0.040127612474770494,-13015040
0.040190116544045834,-5224448
0.04025262061332118,3147776
